H2O Chem Phys Special Issue vol 258, pp 121-137 (2000)
T=298K Case (a) g_HH(r)

 Bin no.        r             g(r)        std.
      1 0.0000000E+00 0.0000000E+00 0.0000000E+00
      2 0.7500000E-02 0.0000000E+00 0.0000000E+00
      3 0.3000000E-01 0.0000000E+00 0.0000000E+00
      4 0.5999999E-01 0.0000000E+00 0.0000000E+00
      5 0.9000000E-01 0.0000000E+00 0.0000000E+00
      6 0.1200000     0.0000000E+00 0.0000000E+00
      7 0.1500000     0.0000000E+00 0.0000000E+00
      8 0.1800000     0.0000000E+00 0.0000000E+00
      9 0.2100000     0.0000000E+00 0.0000000E+00
     10 0.2400000     0.0000000E+00 0.0000000E+00
     11 0.2700000     0.0000000E+00 0.0000000E+00
     12 0.3000000     0.0000000E+00 0.0000000E+00
     13 0.3300000     0.0000000E+00 0.0000000E+00
     14 0.3600000     0.0000000E+00 0.0000000E+00
     15 0.3900000     0.0000000E+00 0.0000000E+00
     16 0.4200000     0.0000000E+00 0.0000000E+00
     17 0.4500000     0.0000000E+00 0.0000000E+00
     18 0.4800000     0.0000000E+00 0.0000000E+00
     19 0.5100000     0.0000000E+00 0.0000000E+00
     20 0.5400000     0.0000000E+00 0.0000000E+00
     21 0.5699999     0.0000000E+00 0.0000000E+00
     22 0.5999999     0.0000000E+00 0.0000000E+00
     23 0.6299999     0.0000000E+00 0.0000000E+00
     24 0.6599998     0.0000000E+00 0.0000000E+00
     25 0.6899998     0.0000000E+00 0.0000000E+00
     26 0.7199998     0.0000000E+00 0.0000000E+00
     27 0.7499998     0.0000000E+00 0.0000000E+00
     28 0.7799997     0.0000000E+00 0.0000000E+00
     29 0.8099997     0.0000000E+00 0.0000000E+00
     30 0.8399997     0.0000000E+00 0.0000000E+00
     31 0.8699996     0.0000000E+00 0.0000000E+00
     32 0.8999996     0.0000000E+00 0.0000000E+00
     33 0.9299996     0.0000000E+00 0.0000000E+00
     34 0.9599996     0.0000000E+00 0.0000000E+00
     35 0.9899995     0.0000000E+00 0.0000000E+00
     36  1.020000     0.0000000E+00 0.0000000E+00
     37  1.049999     0.0000000E+00 0.0000000E+00
     38  1.079999     0.7981407E-03 0.6983170E-02
     39  1.109999     0.1889192E-02 0.1035102E-01
     40  1.139999     0.2514477E-02 0.1154866E-01
     41  1.169999     0.1693581E-01 0.2738632E-01
     42  1.199999     0.2851383E-01 0.3782198E-01
     43  1.229999     0.5068008E-01 0.4429694E-01
     44  1.259999     0.9286652E-01 0.6021048E-01
     45  1.289999     0.1648467     0.8600099E-01
     46  1.319999     0.3301807     0.1031040    
     47  1.349999     0.4479623     0.1085036    
     48  1.379999     0.6781664     0.1482553    
     49  1.409999     0.9252295     0.1989253    
     50  1.439999      1.159585     0.1839790    
     51  1.469999      1.409067     0.1908574    
     52  1.499999      1.584558     0.2162436    
     53  1.529999      1.706037     0.1770375    
     54  1.559999      1.634921     0.2047471    
     55  1.589999      1.548669     0.1953174    
     56  1.619999      1.345122     0.1671460    
     57  1.649999      1.092116     0.1516225    
     58  1.679999     0.9330298     0.1381228    
     59  1.709999     0.6334869     0.1167706    
     60  1.739999     0.4529241     0.1098303    
     61  1.769999     0.3280065     0.7975625E-01
     62  1.799999     0.2472807     0.7763823E-01
     63  1.829999     0.2085880     0.6745382E-01
     64  1.859999     0.2201703     0.6700954E-01
     65  1.889999     0.2514645     0.7490473E-01
     66  1.919999     0.3044227     0.7897761E-01
     67  1.949999     0.3750437     0.8582541E-01
     68  1.979999     0.4555026     0.9230639E-01
     69  2.009999     0.5427595     0.9889745E-01
     70  2.039999     0.6385142     0.1062619    
     71  2.069999     0.7397020     0.1095430    
     72  2.099998     0.8342065     0.1154734    
     73  2.129998     0.9279909     0.1205108    
     74  2.159998      1.015242     0.1240321    
     75  2.189998      1.092877     0.1288406    
     76  2.219998      1.161151     0.1288614    
     77  2.249998      1.214594     0.1323661    
     78  2.279998      1.247865     0.1314919    
     79  2.309998      1.271351     0.1315236    
     80  2.339998      1.283189     0.1307765    
     81  2.369998      1.279696     0.1278299    
     82  2.399998      1.267256     0.1264752    
     83  2.429998      1.242645     0.1206746    
     84  2.459998      1.207583     0.1167334    
     85  2.489998      1.172200     0.1146370    
     86  2.519998      1.129881     0.1114336    
     87  2.549998      1.081853     0.1093483    
     88  2.579998      1.036751     0.1078179    
     89  2.609998     0.9939508     0.1018581    
     90  2.639998     0.9514706     0.9878830E-01
     91  2.669998     0.9136250     0.9507263E-01
     92  2.699998     0.8771285     0.9184199E-01
     93  2.729998     0.8495263     0.9219792E-01
     94  2.759998     0.8246217     0.8936214E-01
     95  2.789998     0.8019246     0.8707713E-01
     96  2.819998     0.7851200     0.8507416E-01
     97  2.849998     0.7737301     0.8333424E-01
     98  2.879998     0.7656086     0.8190472E-01
     99  2.909998     0.7633717     0.8215577E-01
    100  2.939998     0.7620395     0.8090490E-01
    101  2.969998     0.7648299     0.7924385E-01
    102  2.999998     0.7699579     0.7820964E-01
    103  3.029998     0.7789172     0.7828581E-01
    104  3.059998     0.7873493     0.7756759E-01
    105  3.089998     0.8033755     0.7952054E-01
    106  3.119998     0.8161374     0.7582562E-01
    107  3.149997     0.8310729     0.7788315E-01
    108  3.179997     0.8454793     0.7630713E-01
    109  3.209997     0.8616043     0.7715230E-01
    110  3.239997     0.8788194     0.7672194E-01
    111  3.269997     0.8944678     0.7833073E-01
    112  3.299997     0.9138691     0.7683490E-01
    113  3.329997     0.9331530     0.7651151E-01
    114  3.359997     0.9525682     0.7743955E-01
    115  3.389997     0.9720349     0.7632235E-01
    116  3.419997     0.9914312     0.7781195E-01
    117  3.449997      1.011106     0.7742146E-01
    118  3.479997      1.033663     0.7589986E-01
    119  3.509997      1.051862     0.7864891E-01
    120  3.539997      1.068885     0.7919569E-01
    121  3.569997      1.087276     0.7816314E-01
    122  3.599997      1.099531     0.7736600E-01
    123  3.629997      1.114141     0.7822564E-01
    124  3.659997      1.129576     0.7723337E-01
    125  3.689997      1.135759     0.7643513E-01
    126  3.719997      1.144634     0.7575995E-01
    127  3.749997      1.150828     0.7720327E-01
    128  3.779997      1.157747     0.7610533E-01
    129  3.809997      1.155586     0.7434794E-01
    130  3.839997      1.158897     0.7329832E-01
    131  3.869997      1.152945     0.7458965E-01
    132  3.899997      1.150998     0.7254716E-01
    133  3.929997      1.145716     0.7229778E-01
    134  3.959997      1.142248     0.7220457E-01
    135  3.989997      1.134502     0.7099330E-01
    136  4.019997      1.125847     0.6977896E-01
    137  4.049997      1.119012     0.6845609E-01
    138  4.079998      1.108357     0.6854136E-01
    139  4.109998      1.105351     0.6844825E-01
    140  4.139998      1.096884     0.6783156E-01
    141  4.169998      1.087640     0.6667319E-01
    142  4.199998      1.079556     0.6574957E-01
    143  4.229999      1.071357     0.6450304E-01
    144  4.259999      1.066195     0.6412677E-01
    145  4.289999      1.058291     0.6396298E-01
    146  4.319999      1.051914     0.6296935E-01
    147  4.349999      1.046170     0.6097751E-01
    148  4.380000      1.041176     0.6143133E-01
    149  4.410000      1.031962     0.6135949E-01
    150  4.440000      1.028174     0.6040002E-01
    151  4.470000      1.024286     0.6133423E-01
    152  4.500000      1.019015     0.5829698E-01
    153  4.530001      1.016230     0.5814444E-01
    154  4.560001      1.010538     0.5878063E-01
    155  4.590001      1.007342     0.5806955E-01
    156  4.620001      1.002941     0.5785154E-01
    157  4.650002      1.003077     0.5707045E-01
    158  4.680002     0.9989977     0.5585274E-01
    159  4.710002     0.9954097     0.5717948E-01
    160  4.740002     0.9920114     0.5555205E-01
    161  4.770002     0.9883648     0.5471529E-01
    162  4.800003     0.9855831     0.5377471E-01
    163  4.830003     0.9829490     0.5443460E-01
    164  4.860003     0.9801706     0.5392746E-01
    165  4.890003     0.9793651     0.5413595E-01
    166  4.920003     0.9770788     0.5420857E-01
    167  4.950004     0.9733227     0.5293912E-01
    168  4.980004     0.9733432     0.5298020E-01
    169  5.010004     0.9718290     0.5293406E-01
    170  5.040004     0.9707283     0.5205122E-01
    171  5.070004     0.9699141     0.5098975E-01
    172  5.100005     0.9676787     0.4987286E-01
    173  5.130005     0.9662928     0.5116072E-01
    174  5.160005     0.9660853     0.5053298E-01
    175  5.190005     0.9639637     0.5019985E-01
    176  5.220006     0.9654065     0.4963025E-01
    177  5.250006     0.9650747     0.5037527E-01
    178  5.280006     0.9646386     0.4982802E-01
    179  5.310006     0.9634484     0.4891898E-01
    180  5.340006     0.9649152     0.4935144E-01
    181  5.370007     0.9657601     0.4875788E-01
    182  5.400007     0.9667504     0.4810500E-01
    183  5.430007     0.9667353     0.4843223E-01
    184  5.460007     0.9672562     0.4798093E-01
    185  5.490007     0.9688439     0.4838545E-01
    186  5.520008     0.9691828     0.4774744E-01
    187  5.550008     0.9710162     0.4675787E-01
    188  5.580008     0.9726861     0.4667111E-01
    189  5.610008     0.9731666     0.4676998E-01
    190  5.640008     0.9742082     0.4722023E-01
    191  5.670009     0.9754958     0.4591077E-01
    192  5.700009     0.9770185     0.4577034E-01
    193  5.730009     0.9796776     0.4590363E-01
    194  5.760009     0.9822837     0.4646119E-01
    195  5.790009     0.9839363     0.4581980E-01
    196  5.820010     0.9852458     0.4505900E-01
    197  5.850010     0.9864866     0.4507883E-01
    198  5.880010     0.9899338     0.4520163E-01
    199  5.910010     0.9889933     0.4497160E-01
    200  5.940011     0.9911870     0.4464704E-01
    201  5.970011     0.9921228     0.4456352E-01
    202  6.000011     0.9944283     0.4463502E-01
    203  6.030011     0.9949228     0.4416989E-01
    204  6.060011     0.9971981     0.4336641E-01
    205  6.090012     0.9982036     0.4351117E-01
    206  6.120012     0.9989999     0.4380199E-01
    207  6.150012      1.000175     0.4336504E-01
    208  6.180012      1.002509     0.4321358E-01
    209  6.210012      1.002284     0.4336916E-01
    210  6.240013      1.003167     0.4240042E-01
    211  6.270013      1.004010     0.4254777E-01
    212  6.300013      1.003705     0.4300757E-01
    213  6.330013      1.003464     0.4189129E-01
    214  6.360013      1.004942     0.4245520E-01
    215  6.390014      1.005648     0.4184715E-01
    216  6.420014      1.005137     0.4155414E-01
    217  6.450014      1.004891     0.4079268E-01
    218  6.480014      1.005916     0.4119977E-01
    219  6.510015      1.004956     0.4181438E-01
    220  6.540015      1.005620     0.4117227E-01
    221  6.570015      1.005350     0.4061989E-01
    222  6.600015      1.005165     0.4075028E-01
    223  6.630015      1.005605     0.4041689E-01
    224  6.660016      1.004741     0.4039476E-01
    225  6.690016      1.004653     0.3952063E-01
    226  6.720016      1.006355     0.4015056E-01
    227  6.750016      1.006037     0.3954475E-01
    228  6.780016      1.007105     0.3912501E-01
    229  6.810017      1.004709     0.3963208E-01
    230  6.840017      1.004898     0.3895095E-01
    231  6.870017      1.006135     0.3855876E-01
    232  6.900017      1.005964     0.3811410E-01
    233  6.930017      1.005155     0.3921023E-01
    234  6.960018      1.004881     0.3845350E-01
    235  6.990018      1.007188     0.3780003E-01
    236  7.020018      1.005505     0.3726965E-01
    237  7.050018      1.005911     0.3760241E-01
    238  7.080019      1.006911     0.3784101E-01
    239  7.110019      1.007121     0.3756594E-01
    240  7.140019      1.007138     0.3746903E-01
    241  7.170019      1.007215     0.3665363E-01
    242  7.200019      1.007508     0.3688221E-01
    243  7.230020      1.007437     0.3714790E-01
    244  7.260020      1.007402     0.3623823E-01
    245  7.290020      1.007012     0.3597410E-01
    246  7.320020      1.007215     0.3579305E-01
    247  7.350020      1.006490     0.3628426E-01
    248  7.380021      1.007648     0.3589448E-01
    249  7.410021      1.006969     0.3668614E-01
    250  7.440021      1.008198     0.3587455E-01
    251  7.470021      1.007219     0.3639415E-01
    252  7.500021      1.007246     0.3539786E-01
    253  7.530022      1.006923     0.3579305E-01
    254  7.560022      1.007049     0.3449561E-01
    255  7.590022      1.007120     0.3466281E-01
    256  7.620022      1.006981     0.3464905E-01
    257  7.650023      1.005439     0.3403814E-01
    258  7.680023      1.005438     0.3496244E-01
    259  7.710023      1.005778     0.3474868E-01
    260  7.740023      1.005080     0.3446276E-01
    261  7.770023      1.005227     0.3422152E-01
    262  7.800024      1.003472     0.3356556E-01
    263  7.830024      1.003834     0.3388897E-01
    264  7.860024      1.003557     0.3328918E-01
    265  7.890024      1.003671     0.3336072E-01
    266  7.920024      1.002562     0.3295989E-01
    267  7.950025      1.001701     0.3296712E-01
    268  7.980025      1.002372     0.3346954E-01
    269  8.010024      1.001624     0.3381502E-01
    270  8.040024     0.9995964     0.3244316E-01
    271  8.070024     0.9993748     0.3241283E-01
    272  8.100023      1.000087     0.3243489E-01
    273  8.130023     0.9996907     0.3257242E-01
    274  8.160023     0.9989421     0.3277309E-01
    275  8.190022     0.9989805     0.3253855E-01
    276  8.220022     0.9992790     0.3248447E-01
    277  8.250022     0.9978603     0.3206711E-01
    278  8.280022     0.9974768     0.3188723E-01
    279  8.310021     0.9983796     0.3200291E-01
    280  8.340021     0.9967970     0.3197124E-01
    281  8.370021     0.9964689     0.3125572E-01
    282  8.400021     0.9963359     0.3090091E-01
    283  8.430020     0.9957316     0.3153197E-01
    284  8.460020     0.9951026     0.3089705E-01
    285  8.490020     0.9948213     0.3113726E-01
    286  8.520020     0.9940643     0.3095006E-01
    287  8.550019     0.9948575     0.3181331E-01
    288  8.580019     0.9948773     0.3043348E-01
    289  8.610019     0.9933402     0.3126335E-01
    290  8.640018     0.9948975     0.3062773E-01
    291  8.670018     0.9945797     0.3070548E-01
    292  8.700018     0.9952940     0.3035504E-01
    293  8.730018     0.9951187     0.3022615E-01
    294  8.760017     0.9953706     0.3047360E-01
    295  8.790017     0.9945024     0.2995975E-01
    296  8.820017     0.9947240     0.3017780E-01
    297  8.850017     0.9955921     0.2941261E-01
    298  8.880016     0.9960642     0.2959544E-01
    299  8.910016     0.9951548     0.2976314E-01
    300  8.940016     0.9950329     0.2915820E-01
    301  8.970016     0.9959612     0.2926532E-01
    302  9.000015     0.9955093     0.2911627E-01
    303  9.030015     0.9950137     0.2934465E-01
    304  9.060015     0.9952316     0.2902194E-01
    305  9.090014     0.9949526     0.2881894E-01
    306  9.120014     0.9953540     0.2851015E-01
    307  9.150014     0.9965636     0.2906607E-01
    308  9.180014     0.9962649     0.2945210E-01
    309  9.210013     0.9962645     0.2875993E-01
    310  9.240013     0.9960686     0.2836868E-01
    311  9.270013     0.9968810     0.2841591E-01
    312  9.300013     0.9979233     0.2851851E-01
    313  9.330012     0.9978176     0.2849551E-01
    314  9.360012     0.9969769     0.2918578E-01
    315  9.390012     0.9980593     0.2820432E-01
    316  9.420012     0.9985923     0.2879721E-01
    317  9.450011     0.9987082     0.2811754E-01
    318  9.480011     0.9994892     0.2826027E-01
    319  9.510011     0.9997100     0.2781596E-01
    320  9.540010      1.000263     0.2754356E-01
    321  9.570010      1.000246     0.2754789E-01
    322  9.600010      1.001148     0.2774409E-01
    323  9.630010      1.001381     0.2764509E-01
    324  9.660009      1.001701     0.2800070E-01
    325  9.690009      1.002780     0.2730012E-01
    326  9.720009      1.002989     0.2762136E-01
    327  9.750009      1.002479     0.2796663E-01
    328  9.780008      1.003418     0.2707430E-01
    329  9.810008      1.003215     0.2730230E-01
    330  9.840008      1.003555     0.2705228E-01
    331  9.870008      1.003243     0.2766233E-01
    332  9.900007      1.002995     0.2667285E-01
    333  9.930007      1.003102     0.2694631E-01
    334  9.960007      1.003838     0.2658332E-01
    335  9.990006      1.003227     0.2601902E-01
    336  10.02001      1.002844     0.2667285E-01
    337  10.05001      1.002903     0.2643266E-01
    338  10.08001      1.002605     0.2599840E-01
    339  10.11001      1.002104     0.2671528E-01
    340  10.14001      1.003026     0.2643266E-01
    341  10.17000      1.002585     0.2617433E-01
    342  10.20000      1.001847     0.2613559E-01
    343  10.23000      1.002657     0.2489995E-01
    344  10.26000      1.002622     0.2566381E-01
    345  10.29000      1.002989     0.2575423E-01
    346  10.32000      1.002577     0.2567542E-01
    347  10.35000      1.002342     0.2521867E-01
    348  10.38000      1.002586     0.2613787E-01
    349  10.41000      1.002290     0.2541174E-01
    350  10.44000      1.003089     0.2574729E-01
    351  10.47000      1.002197     0.2545393E-01
    352  10.50000      1.002598     0.2497405E-01
    353  10.53000      1.002891     0.2623348E-01
    354  10.56000      1.002912     0.2524938E-01
    355  10.59000      1.002088     0.2501935E-01
    356  10.62000      1.002210     0.2479200E-01
    357  10.65000      1.002147     0.2427696E-01
    358  10.68000      1.002194     0.2587660E-01
    359  10.71000      1.001866     0.2484723E-01
    360  10.74000      1.000899     0.2477757E-01
    361  10.77000      1.001693     0.2534128E-01
    362  10.80000      1.001462     0.2535069E-01
    363  10.83000      1.001533     0.2456254E-01
    364  10.86000      1.001205     0.2481603E-01
    365  10.89000      1.001434     0.2393076E-01
    366  10.92000      1.000723     0.2445797E-01
    367  10.95000      1.000221     0.2483523E-01
    368  10.98000      1.000326     0.2370805E-01
    369  11.01000      1.001077     0.2357949E-01
    370  11.04000      1.000527     0.2470771E-01
    371  11.07000      1.000398     0.2423027E-01
    372  11.10000      1.000596     0.2423519E-01
    373  11.13000      1.000162     0.2361737E-01
    374  11.16000      1.000433     0.2407974E-01
    375  11.19000     0.9997343     0.2387965E-01
    376  11.22000      1.000453     0.2317150E-01
    377  11.25000     0.9994568     0.2334960E-01
    378  11.27999     0.9984522     0.2385717E-01
    379  11.30999     0.9991854     0.2343369E-01
    380  11.33999     0.9983490     0.2265120E-01
    381  11.36999     0.9995153     0.2380340E-01
    382  11.39999     0.9986620     0.2344004E-01
    383  11.42999     0.9987082     0.2354913E-01
    384  11.45999     0.9991346     0.2346673E-01
    385  11.48999     0.9986748     0.2278631E-01
    386  11.51999     0.9989164     0.2314062E-01
    387  11.54999     0.9982142     0.2308001E-01
    388  11.57999     0.9980298     0.2225299E-01
    389  11.60999     0.9988172     0.2258928E-01
